"Potential, V","Current, A"
0.2,2.0318e-07
0.199,1.7518e-07
0.198,1.6889e-07
0.197,1.6413e-07
0.196,1.5944e-07
0.195,1.563e-07
0.194,1.5293e-07
0.193,1.4978e-07
0.192,1.4712e-07
0.191,1.4453e-07
0.19,1.4249e-07
0.189,1.4027e-07
0.188,1.37706e-07
0.187,1.36174e-07
0.186,1.33974e-07
0.185,1.31941e-07
0.184,1.30674e-07
0.183,1.28601e-07
0.182,1.27217e-07
0.181,1.25616e-07
0.18,1.23612e-07
0.179,1.2264e-07
0.178,1.21137e-07
0.177,1.1949e-07
0.176,1.1848e-07
0.175,1.1674e-07
0.174,1.157e-07
0.173,1.1432e-07
0.172,1.1271e-07
0.171,1.1203e-07
0.17,1.1072e-07
0.169,1.0932e-07
0.168,1.0836e-07
0.167,1.0703e-07
0.166,1.0604e-07
0.165,1.0525e-07
0.164,1.0376e-07
0.163,1.0332e-07
0.162,1.0213e-07
0.161,1.0091e-07
0.16,1.0011e-07
0.159,9.90202e-08
0.158,9.82102e-08
0.157,9.74402e-08
0.156,9.60702e-08
0.155,9.57002e-08
0.154,9.46602e-08
0.153,9.35102e-08
0.152,9.30002e-08
0.151,9.18402e-08
0.15,9.12702e-08
0.149,9.04602e-08
0.148,8.93202e-08
0.147,8.88402e-08
0.146,8.79702e-08
0.145,8.70702e-08
0.144,8.65702e-08
0.143,8.55102e-08
0.142,8.48602e-08
0.141,8.39502e-08
0.14,8.30602e-08
0.139,8.27902e-08
0.138,8.19602e-08
0.137,8.10402e-08
0.136,8.05902e-08
0.135,7.95902e-08
0.134,7.90202e-08
0.133,7.85702e-08
0.132,7.74002e-08
0.131,7.71902e-08
0.13,7.64702e-08
0.129,7.54702e-08
0.128,7.50302e-08
0.127,7.42202e-08
0.126,7.37802e-08
0.125,7.31902e-08
0.124,7.21502e-08
0.123,7.20102e-08
0.122,7.11702e-08
0.121,7.03202e-08
0.12,7.00402e-08
0.119,6.92602e-08
0.118,6.87202e-08
0.117,6.82802e-08
0.116,6.73602e-08
0.115,6.68802e-08
0.114,6.64902e-08
0.113,6.57602e-08
0.112,6.53502e-08
0.111,6.45702e-08
0.11,6.41602e-08
0.109,6.36302e-08
0.108,6.26402e-08
0.107,6.26002e-08
0.106,6.19802e-08
0.105,6.12602e-08
0.104,6.08802e-08
0.103,6.00802e-08
0.102,5.95402e-08
0.101,5.92302e-08
0.1,5.83802e-08
0.099,5.83802e-08
0.098,5.76202e-08
0.097,5.68502e-08
0.096,5.66102e-08
0.095,5.58502e-08
0.094,5.56002e-08
0.093,5.50602e-08
0.092,5.41602e-08
0.091,5.39702e-08
0.09,5.31702e-08
0.089,5.26602e-08
0.088,5.23002e-08
0.087,5.16502e-08
0.086,5.12902e-08
0.085,5.09002e-08
0.084,4.98502e-08
0.083,4.97302e-08
0.082,4.92002e-08
0.081,4.85402e-08
0.08,4.83802e-08
0.079,4.75002e-08
0.078,4.72402e-08
0.077,4.66602e-08
0.076,4.59202e-08
0.075,4.58102e-08
0.074,4.53702e-08
0.073,4.44802e-08
0.072,4.42802e-08
0.071,4.34802e-08
0.07,4.30702e-08
0.069,4.27202e-08
0.068,4.18202e-08
0.067,4.18102e-08
0.066,4.11302e-08
0.065,4.04702e-08
0.064,3.99702e-08
0.063,3.93302e-08
0.062,3.92302e-08
0.061,3.86602e-08
0.06,3.77802e-08
0.059,3.78602e-08
0.058,3.70002e-08
0.057,3.62902e-08
0.056,3.62602e-08
0.055,3.54602e-08
0.054,3.50802e-08
0.053,3.46702e-08
0.052,3.38202e-08
0.051,3.38102e-08
0.05,3.31702e-08
0.049,3.23002e-08
0.048,3.21502e-08
0.047,3.14102e-08
0.046,3.10302e-08
0.045,3.04502e-08
0.044,2.96802e-08
0.043,2.95802e-08
0.042,2.87802e-08
0.041,2.80802e-08
0.04,2.78802e-08
0.039,2.67802e-08
0.038,2.63802e-08
0.037,2.60802e-08
0.036,2.50802e-08
0.035,2.49802e-08
0.034,2.42802e-08
0.033,2.33802e-08
0.032,2.30802e-08
0.031,2.21802e-08
0.03,2.17802e-08
0.029,2.13802e-08
0.028,2.02802e-08
0.027,1.99802e-08
0.026,1.92802e-08
0.025,1.84802e-08
0.024,1.81928e-08
0.023,1.7336e-08
0.022,1.67793e-08
0.021,1.61225e-08
0.02,1.52658e-08
0.019,1.4909e-08
0.018,1.39523e-08
0.017,1.31955e-08
0.016,1.28388e-08
0.015,1.1682e-08
0.014,1.13252e-08
0.013,1.02685e-08
0.012,9.21172e-09
0.011,8.95497e-09
0.01,8.09821e-09
0.009,6.94145e-09
0.008,6.3847e-09
0.007,5.22794e-09
0.006,4.37118e-09
0.005,3.61443e-09
0.004,2.35767e-09
0.003,1.80091e-09
0.002,7.44158e-10
0.001,-5.12599e-10
0.0,-2.76936e-09
-0.001,-2.82611e-09
-0.002,-3.88287e-09
-0.003,-4.93963e-09
-0.004,-6.49638e-09
-0.005,-7.15314e-09
-0.006,-8.6099e-09
-0.007,-1.02667e-08
-0.008,-1.11234e-08
-0.009,-1.26802e-08
-0.01,-1.38369e-08
-0.011,-1.51937e-08
-0.012,-1.71504e-08
-0.013,-1.84072e-08
-0.014,-1.96639e-08
-0.015,-2.17207e-08
-0.016,-2.28775e-08
-0.017,-2.47342e-08
-0.018,-2.6391e-08
-0.019,-2.82477e-08
-0.02,-3.05045e-08
-0.021,-3.19612e-08
-0.022,-3.4118e-08
-0.023,-3.63748e-08
-0.024,-3.81315e-08
-0.025,-4.07883e-08
-0.026,-4.2745e-08
-0.027,-4.49018e-08
-0.028,-4.75585e-08
-0.029,-4.96153e-08
-0.03,-5.22721e-08
-0.031,-5.49288e-08
-0.032,-5.75856e-08
-0.033,-6.06423e-08
-0.034,-6.30991e-08
-0.035,-6.61558e-08
-0.036,-6.97126e-08
-0.037,-7.24693e-08
-0.038,-7.61261e-08
-0.039,-7.98829e-08
-0.04,-8.28396e-08
-0.041,-8.68964e-08
-0.042,-9.04531e-08
-0.043,-9.44099e-08
-0.044,-9.90666e-08
-0.045,-1.02923e-07
-0.046,-1.0738e-07
-0.047,-1.12137e-07
-0.048,-1.16394e-07
-0.049,-1.2175e-07
-0.05,-1.26307e-07
-0.051,-1.31564e-07
-0.052,-1.37521e-07
-0.053,-1.42477e-07
-0.054,-1.48434e-07
-0.055,-1.54791e-07
-0.056,-1.60448e-07
-0.057,-1.67504e-07
-0.058,-1.74461e-07
-0.059,-1.81118e-07
-0.06,-1.88675e-07
-0.061,-1.95432e-07
-0.062,-2.03488e-07
-0.063,-2.11745e-07
-0.064,-2.20202e-07
-0.065,-2.28959e-07
-0.066,-2.37715e-07
-0.067,-2.46772e-07
-0.068,-2.56929e-07
-0.069,-2.66186e-07
-0.07,-2.76942e-07
-0.071,-2.87699e-07
-0.072,-2.98356e-07
-0.073,-3.10113e-07
-0.074,-3.21569e-07
-0.075,-3.33826e-07
-0.076,-3.47583e-07
-0.077,-3.6014e-07
-0.078,-3.73596e-07
-0.079,-3.87853e-07
-0.08,-4.0231e-07
-0.081,-4.18267e-07
-0.082,-4.33423e-07
-0.083,-4.4978e-07
-0.084,-4.67337e-07
-0.085,-4.84194e-07
-0.086,-5.0285e-07
-0.087,-5.21607e-07
-0.088,-5.40564e-07
-0.089,-5.61821e-07
-0.09,-5.82277e-07
-0.091,-6.03934e-07
-0.092,-6.26991e-07
-0.093,-6.49248e-07
-0.094,-6.74104e-07
-0.095,-6.98861e-07
-0.096,-7.24518e-07
-0.097,-7.51775e-07
-0.098,-7.77832e-07
-0.099,-8.06688e-07
-0.1,-8.37245e-07
-0.101,-8.65802e-07
-0.102,-8.99759e-07
-0.103,-9.32715e-07
-0.104,-9.63672e-07
-0.105,-9.99629e-07
-0.106,-1.03459e-06
-0.107,-1.07254e-06
-0.108,-1.1115e-06
-0.109,-1.15046e-06
-0.11,-1.19141e-06
-0.111,-1.23337e-06
-0.112,-1.27633e-06
-0.113,-1.32228e-06
-0.114,-1.36724e-06
-0.115,-1.4162e-06
-0.116,-1.46615e-06
-0.117,-1.51511e-06
-0.118,-1.56807e-06
-0.119,-1.62102e-06
-0.12,-1.67498e-06
-0.121,-1.73494e-06
-0.122,-1.79189e-06
-0.123,-1.85285e-06
-0.124,-1.91481e-06
-0.125,-1.97676e-06
-0.126,-2.04272e-06
-0.127,-2.10968e-06
-0.128,-2.17863e-06
-0.129,-2.25059e-06
-0.13,-2.32055e-06
-0.131,-2.3955e-06
-0.132,-2.47246e-06
-0.133,-2.54742e-06
-0.134,-2.62937e-06
-0.135,-2.71133e-06
-0.136,-2.79229e-06
-0.137,-2.87925e-06
-0.138,-2.9632e-06
-0.139,-3.05216e-06
-0.14,-3.14512e-06
-0.141,-3.23507e-06
-0.142,-3.33103e-06
-0.143,-3.42599e-06
-0.144,-3.52094e-06
-0.145,-3.6209e-06
-0.146,-3.71886e-06
-0.147,-3.82281e-06
-0.148,-3.92777e-06
-0.149,-4.02973e-06
-0.15,-4.13668e-06
-0.151,-4.24364e-06
-0.152,-4.3516e-06
-0.153,-4.46455e-06
-0.154,-4.57051e-06
-0.155,-4.68347e-06
-0.156,-4.79742e-06
-0.157,-4.90838e-06
-0.158,-5.02534e-06
-0.159,-5.13829e-06
-0.16,-5.25525e-06
-0.161,-5.37321e-06
-0.162,-5.48516e-06
-0.163,-5.60312e-06
-0.164,-5.72108e-06
-0.165,-5.83203e-06
-0.166,-5.95099e-06
-0.167,-6.06995e-06
-0.168,-6.1809e-06
-0.169,-6.29886e-06
-0.17,-6.40782e-06
-0.171,-6.52277e-06
-0.172,-6.63573e-06
-0.173,-6.74469e-06
-0.174,-6.85565e-06
-0.175,-6.9626e-06
-0.176,-7.06656e-06
-0.177,-7.17452e-06
-0.178,-7.27247e-06
-0.179,-7.37743e-06
-0.18,-7.47639e-06
-0.181,-7.56934e-06
-0.182,-7.6663e-06
-0.183,-7.75526e-06
-0.184,-7.84321e-06
-0.185,-7.93317e-06
-0.186,-8.01613e-06
-0.187,-8.09808e-06
-0.188,-8.17704e-06
-0.189,-8.247e-06
-0.19,-8.32195e-06
-0.191,-8.38991e-06
-0.192,-8.45787e-06
-0.193,-8.52282e-06
-0.194,-8.57878e-06
-0.195,-8.63574e-06
-0.196,-8.69069e-06
-0.197,-8.73465e-06
-0.198,-8.78561e-06
-0.199,-8.82856e-06
-0.2,-8.86652e-06
-0.201,-8.90548e-06
-0.202,-8.93443e-06
-0.203,-8.96539e-06
-0.204,-8.99435e-06
-0.205,-9.0213e-06
-0.206,-9.04026e-06
-0.207,-9.05522e-06
-0.208,-9.06717e-06
-0.209,-9.08013e-06
-0.21,-9.08509e-06
-0.211,-9.09305e-06
-0.212,-9.097e-06
-0.213,-9.09296e-06
-0.214,-9.09192e-06
-0.215,-9.08587e-06
-0.216,-9.07583e-06
-0.217,-9.06979e-06
-0.218,-9.05574e-06
-0.219,-9.0407e-06
-0.22,-9.02566e-06
-0.221,-9.00461e-06
-0.222,-8.98557e-06
-0.223,-8.96153e-06
-0.224,-8.93748e-06
-0.225,-8.91444e-06
-0.226,-8.8844e-06
-0.227,-8.85635e-06
-0.228,-8.82631e-06
-0.229,-8.79327e-06
-0.23,-8.76122e-06
-0.231,-8.72718e-06
-0.232,-8.69214e-06
-0.233,-8.65709e-06
-0.234,-8.61805e-06
-0.235,-8.58101e-06
-0.236,-8.54396e-06
-0.237,-8.50392e-06
-0.238,-8.46488e-06
-0.239,-8.42283e-06
-0.24,-8.38179e-06
-0.241,-8.34175e-06
-0.242,-8.2987e-06
-0.243,-8.25766e-06
-0.244,-8.21662e-06
-0.245,-8.17157e-06
-0.246,-8.13053e-06
-0.247,-8.08749e-06
-0.248,-8.04344e-06
-0.249,-8.0014e-06
-0.25,-7.95836e-06
-0.251,-7.91432e-06
-0.252,-7.87227e-06
-0.253,-7.82723e-06
-0.254,-7.78619e-06
-0.255,-7.74314e-06
-0.256,-7.7001e-06
-0.257,-7.65906e-06
-0.258,-7.61601e-06
-0.259,-7.57397e-06
-0.26,-7.53293e-06
-0.261,-7.49088e-06
-0.262,-7.45084e-06
-0.263,-7.4108e-06
-0.264,-7.36875e-06
-0.265,-7.32971e-06
-0.266,-7.28867e-06
-0.267,-7.24962e-06
-0.268,-7.21258e-06
-0.269,-7.17354e-06
-0.27,-7.13449e-06
-0.271,-7.09645e-06
-0.272,-7.05841e-06
-0.273,-7.02236e-06
-0.274,-6.98532e-06
-0.275,-6.94928e-06
-0.276,-6.91323e-06
-0.277,-6.87719e-06
-0.278,-6.84215e-06
-0.279,-6.8081e-06
-0.28,-6.77306e-06
-0.281,-6.74002e-06
-0.282,-6.70597e-06
-0.283,-6.67293e-06
-0.284,-6.64089e-06
-0.285,-6.60784e-06
-0.286,-6.5768e-06
-0.287,-6.54576e-06
-0.288,-6.51372e-06
-0.289,-6.48467e-06
-0.29,-6.45363e-06
-0.291,-6.42259e-06
-0.292,-6.39454e-06
-0.293,-6.3645e-06
-0.294,-6.33646e-06
-0.295,-6.30841e-06
-0.296,-6.28037e-06
-0.297,-6.25333e-06
-0.298,-6.22628e-06
-0.299,-6.19924e-06
-0.3,-6.1742e-06
-0.301,-6.14715e-06
-0.302,-6.12211e-06
-0.303,-6.09707e-06
-0.304,-6.07102e-06
-0.305,-6.04698e-06
-0.306,-6.02294e-06
-0.307,-5.99989e-06
-0.308,-5.97685e-06
-0.309,-5.95181e-06
-0.31,-5.92976e-06
-0.311,-5.90772e-06
-0.312,-5.88468e-06
-0.313,-5.86363e-06
-0.314,-5.84259e-06
-0.315,-5.82055e-06
-0.316,-5.8005e-06
-0.317,-5.77946e-06
-0.318,-5.75942e-06
-0.319,-5.73937e-06
-0.32,-5.71933e-06
-0.321,-5.70029e-06
-0.322,-5.68024e-06
-0.323,-5.6612e-06
-0.324,-5.64416e-06
-0.325,-5.62412e-06
-0.326,-5.60707e-06
-0.327,-5.59003e-06
-0.328,-5.57099e-06
-0.329,-5.55494e-06
-0.33,-5.5379e-06
-0.331,-5.52186e-06
-0.332,-5.50581e-06
-0.333,-5.48877e-06
-0.334,-5.47273e-06
-0.335,-5.45768e-06
-0.336,-5.44164e-06
-0.337,-5.4266e-06
-0.338,-5.41155e-06
-0.339,-5.39751e-06
-0.34,-5.38247e-06
-0.341,-5.36742e-06
-0.342,-5.35338e-06
-0.343,-5.34034e-06
-0.344,-5.32529e-06
-0.345,-5.31225e-06
-0.346,-5.29921e-06
-0.347,-5.28516e-06
-0.348,-5.27312e-06
-0.349,-5.26008e-06
-0.35,-5.24803e-06
-0.351,-5.23599e-06
-0.352,-5.22295e-06
-0.353,-5.2119e-06
-0.354,-5.19986e-06
-0.355,-5.18782e-06
-0.356,-5.17677e-06
-0.357,-5.16473e-06
-0.358,-5.15369e-06
-0.359,-5.14364e-06
-0.36,-5.1326e-06
-0.361,-5.12256e-06
-0.362,-5.11152e-06
-0.363,-5.10147e-06
-0.364,-5.09143e-06
-0.365,-5.08139e-06
-0.366,-5.07234e-06
-0.367,-5.0633e-06
-0.368,-5.05326e-06
-0.369,-5.04421e-06
-0.37,-5.03417e-06
-0.371,-5.02613e-06
-0.372,-5.01708e-06
-0.373,-5.00704e-06
-0.374,-4.999e-06
-0.375,-4.99095e-06
-0.376,-4.98191e-06
-0.377,-4.97487e-06
-0.378,-4.96582e-06
-0.379,-4.95778e-06
-0.38,-4.95074e-06
-0.381,-4.94169e-06
-0.382,-4.93465e-06
-0.383,-4.92761e-06
-0.384,-4.91956e-06
-0.385,-4.91252e-06
-0.386,-4.90448e-06
-0.387,-4.89743e-06
-0.388,-4.89039e-06
-0.389,-4.88235e-06
-0.39,-4.8763e-06
-0.391,-4.86926e-06
-0.392,-4.86222e-06
-0.393,-4.85617e-06
-0.394,-4.84913e-06
-0.395,-4.84209e-06
-0.396,-4.83604e-06
-0.397,-4.829e-06
-0.398,-4.82296e-06
-0.399,-4.81692e-06
-0.4,-4.80987e-06
-0.401,-4.80483e-06
-0.402,-4.79879e-06
-0.403,-4.79174e-06
-0.404,-4.7867e-06
-0.405,-4.77966e-06
-0.406,-4.77461e-06
-0.407,-4.76857e-06
-0.408,-4.76253e-06
-0.409,-4.75748e-06
-0.41,-4.75144e-06
-0.411,-4.7454e-06
-0.412,-4.74035e-06
-0.413,-4.73431e-06
-0.414,-4.72927e-06
-0.415,-4.72422e-06
-0.416,-4.71818e-06
-0.417,-4.71314e-06
-0.418,-4.70709e-06
-0.419,-4.70205e-06
-0.42,-4.69701e-06
-0.421,-4.69096e-06
-0.422,-4.68692e-06
-0.423,-4.68188e-06
-0.424,-4.67583e-06
-0.425,-4.67179e-06
-0.426,-4.66575e-06
-0.427,-4.6607e-06
-0.428,-4.65666e-06
-0.429,-4.65062e-06
-0.43,-4.64557e-06
-0.431,-4.64153e-06
-0.432,-4.63549e-06
-0.433,-4.63144e-06
-0.434,-4.6264e-06
-0.435,-4.62136e-06
-0.436,-4.61632e-06
-0.437,-4.61127e-06
-0.438,-4.60623e-06
-0.439,-4.60119e-06
-0.44,-4.59614e-06
-0.441,-4.5921e-06
-0.442,-4.58706e-06
-0.443,-4.58201e-06
-0.444,-4.57797e-06
-0.445,-4.57293e-06
-0.446,-4.56788e-06
-0.447,-4.56284e-06
-0.448,-4.5578e-06
-0.449,-4.55375e-06
-0.45,-4.54871e-06
-0.451,-4.54367e-06
-0.452,-4.53962e-06
-0.453,-4.53458e-06
-0.454,-4.52954e-06
-0.455,-4.52549e-06
-0.456,-4.52045e-06
-0.457,-4.51541e-06
-0.458,-4.51036e-06
-0.459,-4.50532e-06
-0.46,-4.50128e-06
-0.461,-4.49623e-06
-0.462,-4.49219e-06
-0.463,-4.48715e-06
-0.464,-4.4821e-06
-0.465,-4.47806e-06
-0.466,-4.47302e-06
-0.467,-4.46797e-06
-0.468,-4.46393e-06
-0.469,-4.45889e-06
-0.47,-4.45484e-06
-0.471,-4.4498e-06
-0.472,-4.44476e-06
-0.473,-4.44072e-06
-0.474,-4.43567e-06
-0.475,-4.43063e-06
-0.476,-4.42659e-06
-0.477,-4.42154e-06
-0.478,-4.4175e-06
-0.479,-4.41246e-06
-0.48,-4.40841e-06
-0.481,-4.40337e-06
-0.482,-4.39833e-06
-0.483,-4.39428e-06
-0.484,-4.39024e-06
-0.485,-4.3852e-06
-0.486,-4.38015e-06
-0.487,-4.37611e-06
-0.488,-4.37107e-06
-0.489,-4.36702e-06
-0.49,-4.36198e-06
-0.491,-4.35794e-06
-0.492,-4.35389e-06
-0.493,-4.34885e-06
-0.494,-4.34481e-06
-0.495,-4.34076e-06
-0.496,-4.33572e-06
-0.497,-4.33068e-06
-0.498,-4.32663e-06
-0.499,-4.32259e-06
-0.5,-4.31855e-06
-0.501,-4.3135e-06
-0.502,-4.30946e-06
-0.503,-4.30442e-06
-0.504,-4.30037e-06
-0.505,-4.29633e-06
-0.506,-4.29229e-06
-0.507,-4.28724e-06
-0.508,-4.2842e-06
-0.509,-4.27916e-06
-0.51,-4.27512e-06
-0.511,-4.27107e-06
-0.512,-4.26703e-06
-0.513,-4.26299e-06
-0.514,-4.25894e-06
-0.515,-4.2539e-06
-0.516,-4.25086e-06
-0.517,-4.24581e-06
-0.518,-4.24177e-06
-0.519,-4.23773e-06
-0.52,-4.23368e-06
-0.521,-4.22964e-06
-0.522,-4.2256e-06
-0.523,-4.22155e-06
-0.524,-4.21851e-06
-0.525,-4.21347e-06
-0.526,-4.20942e-06
-0.527,-4.20638e-06
-0.528,-4.20234e-06
-0.529,-4.19829e-06
-0.53,-4.19425e-06
-0.531,-4.19021e-06
-0.532,-4.18716e-06
-0.533,-4.18212e-06
-0.534,-4.17908e-06
-0.535,-4.17503e-06
-0.536,-4.17099e-06
-0.537,-4.16795e-06
-0.538,-4.1639e-06
-0.539,-4.15986e-06
-0.54,-4.15682e-06
-0.541,-4.15277e-06
-0.542,-4.14873e-06
-0.543,-4.14569e-06
-0.544,-4.14164e-06
-0.545,-4.1386e-06
-0.546,-4.13456e-06
-0.547,-4.13052e-06
-0.548,-4.12847e-06
-0.549,-4.12343e-06
-0.55,-4.12039e-06
-0.551,-4.11734e-06
-0.552,-4.1133e-06
-0.553,-4.11026e-06
-0.554,-4.10721e-06
-0.555,-4.10317e-06
-0.556,-4.10013e-06
-0.557,-4.09708e-06
-0.558,-4.09304e-06
-0.559,-4.09e-06
-0.56,-4.08695e-06
-0.561,-4.08391e-06
-0.562,-4.08087e-06
-0.563,-4.07782e-06
-0.564,-4.07478e-06
-0.565,-4.07074e-06
-0.566,-4.06869e-06
-0.567,-4.06565e-06
-0.568,-4.06261e-06
-0.569,-4.05956e-06
-0.57,-4.05652e-06
-0.571,-4.05348e-06
-0.572,-4.05043e-06
-0.573,-4.04739e-06
-0.574,-4.04435e-06
-0.575,-4.0413e-06
-0.576,-4.03826e-06
-0.577,-4.03622e-06
-0.578,-4.03217e-06
-0.579,-4.03013e-06
-0.58,-4.02709e-06
-0.581,-4.02404e-06
-0.582,-4.021e-06
-0.583,-4.01896e-06
-0.584,-4.01592e-06
-0.585,-4.01287e-06
-0.586,-4.01083e-06
-0.587,-4.00779e-06
-0.588,-4.00574e-06
-0.589,-4.0017e-06
-0.59,-3.99966e-06
-0.591,-3.99761e-06
-0.592,-3.99457e-06
-0.593,-3.99253e-06
-0.594,-3.98948e-06
-0.595,-3.98644e-06
-0.596,-3.9844e-06
-0.597,-3.98135e-06
-0.598,-3.97931e-06
-0.599,-3.97727e-06
-0.6,-3.89822e-06
-0.599,-3.80327e-06
-0.598,-3.76731e-06
-0.597,-3.74035e-06
-0.596,-3.7154e-06
-0.595,-3.69444e-06
-0.594,-3.67548e-06
-0.593,-3.65753e-06
-0.592,-3.64057e-06
-0.591,-3.62461e-06
-0.59,-3.60966e-06
-0.589,-3.5957e-06
-0.588,-3.58074e-06
-0.587,-3.56879e-06
-0.586,-3.55583e-06
-0.585,-3.54287e-06
-0.584,-3.53192e-06
-0.583,-3.51996e-06
-0.582,-3.508e-06
-0.581,-3.49804e-06
-0.58,-3.48709e-06
-0.579,-3.47713e-06
-0.578,-3.46717e-06
-0.577,-3.45722e-06
-0.576,-3.44726e-06
-0.575,-3.4383e-06
-0.574,-3.42835e-06
-0.573,-3.42039e-06
-0.572,-3.41043e-06
-0.571,-3.40248e-06
-0.57,-3.39352e-06
-0.569,-3.38456e-06
-0.568,-3.37761e-06
-0.567,-3.36865e-06
-0.566,-3.36069e-06
-0.565,-3.35274e-06
-0.564,-3.34478e-06
-0.563,-3.33782e-06
-0.562,-3.32987e-06
-0.561,-3.32191e-06
-0.56,-3.31495e-06
-0.559,-3.308e-06
-0.558,-3.30104e-06
-0.557,-3.29308e-06
-0.556,-3.28613e-06
-0.555,-3.28017e-06
-0.554,-3.27321e-06
-0.553,-3.26626e-06
-0.552,-3.2593e-06
-0.551,-3.25234e-06
-0.55,-3.24639e-06
-0.549,-3.24043e-06
-0.548,-3.23347e-06
-0.547,-3.22752e-06
-0.546,-3.22156e-06
-0.545,-3.2146e-06
-0.544,-3.20964e-06
-0.543,-3.20269e-06
-0.542,-3.19673e-06
-0.541,-3.19177e-06
-0.54,-3.18582e-06
-0.539,-3.18086e-06
-0.538,-3.1739e-06
-0.537,-3.16795e-06
-0.536,-3.16299e-06
-0.535,-3.15703e-06
-0.534,-3.15208e-06
-0.533,-3.14612e-06
-0.532,-3.14016e-06
-0.531,-3.13521e-06
-0.53,-3.13025e-06
-0.529,-3.12429e-06
-0.528,-3.11934e-06
-0.527,-3.11338e-06
-0.526,-3.10842e-06
-0.525,-3.10347e-06
-0.524,-3.09851e-06
-0.523,-3.09355e-06
-0.522,-3.0886e-06
-0.521,-3.08264e-06
-0.52,-3.07868e-06
-0.519,-3.07373e-06
-0.518,-3.06777e-06
-0.517,-3.06381e-06
-0.516,-3.05886e-06
-0.515,-3.0539e-06
-0.514,-3.04894e-06
-0.513,-3.04299e-06
-0.512,-3.03903e-06
-0.511,-3.03407e-06
-0.51,-3.02912e-06
-0.509,-3.02516e-06
-0.508,-3.0192e-06
-0.507,-3.01524e-06
-0.506,-3.01029e-06
-0.505,-3.00533e-06
-0.504,-3.00137e-06
-0.503,-2.99642e-06
-0.502,-2.99146e-06
-0.501,-2.9875e-06
-0.5,-2.98255e-06
-0.499,-2.97759e-06
-0.498,-2.97363e-06
-0.497,-2.96868e-06
-0.496,-2.96472e-06
-0.495,-2.95976e-06
-0.494,-2.95581e-06
-0.493,-2.95085e-06
-0.492,-2.94689e-06
-0.491,-2.94294e-06
-0.49,-2.93798e-06
-0.489,-2.93302e-06
-0.488,-2.92907e-06
-0.487,-2.92411e-06
-0.486,-2.92015e-06
-0.485,-2.9162e-06
-0.484,-2.91124e-06
-0.483,-2.90728e-06
-0.482,-2.90333e-06
-0.481,-2.89837e-06
-0.48,-2.89441e-06
-0.479,-2.89046e-06
-0.478,-2.8865e-06
-0.477,-2.88254e-06
-0.476,-2.87759e-06
-0.475,-2.87363e-06
-0.474,-2.86867e-06
-0.473,-2.86472e-06
-0.472,-2.86076e-06
-0.471,-2.8568e-06
-0.47,-2.85184e-06
-0.469,-2.84789e-06
-0.468,-2.84393e-06
-0.467,-2.83897e-06
-0.466,-2.83602e-06
-0.465,-2.83106e-06
-0.464,-2.8271e-06
-0.463,-2.82315e-06
-0.462,-2.81919e-06
-0.461,-2.81523e-06
-0.46,-2.81028e-06
-0.459,-2.80632e-06
-0.458,-2.80236e-06
-0.457,-2.79841e-06
-0.456,-2.79445e-06
-0.455,-2.79049e-06
-0.454,-2.78654e-06
-0.453,-2.78258e-06
-0.452,-2.77762e-06
-0.451,-2.77467e-06
-0.45,-2.77071e-06
-0.449,-2.76575e-06
-0.448,-2.7618e-06
-0.447,-2.75784e-06
-0.446,-2.75488e-06
-0.445,-2.75093e-06
-0.444,-2.74597e-06
-0.443,-2.74301e-06
-0.442,-2.73906e-06
-0.441,-2.7341e-06
-0.44,-2.73114e-06
-0.439,-2.72719e-06
-0.438,-2.72323e-06
-0.437,-2.71927e-06
-0.436,-2.71532e-06
-0.435,-2.71236e-06
-0.434,-2.7084e-06
-0.433,-2.70444e-06
-0.432,-2.70149e-06
-0.431,-2.69753e-06
-0.43,-2.69357e-06
-0.429,-2.68962e-06
-0.428,-2.68566e-06
-0.427,-2.6827e-06
-0.426,-2.67875e-06
-0.425,-2.67479e-06
-0.424,-2.67183e-06
-0.423,-2.66788e-06
-0.422,-2.66392e-06
-0.421,-2.66096e-06
-0.42,-2.65701e-06
-0.419,-2.65305e-06
-0.418,-2.65009e-06
-0.417,-2.64614e-06
-0.416,-2.64218e-06
-0.415,-2.63922e-06
-0.414,-2.63527e-06
-0.413,-2.63231e-06
-0.412,-2.62835e-06
-0.411,-2.6254e-06
-0.41,-2.62144e-06
-0.409,-2.61748e-06
-0.408,-2.61453e-06
-0.407,-2.61157e-06
-0.406,-2.60761e-06
-0.405,-2.60466e-06
-0.404,-2.6007e-06
-0.403,-2.59774e-06
-0.402,-2.59479e-06
-0.401,-2.59083e-06
-0.4,-2.58787e-06
-0.399,-2.58492e-06
-0.398,-2.58096e-06
-0.397,-2.578e-06
-0.396,-2.57404e-06
-0.395,-2.57109e-06
-0.394,-2.56813e-06
-0.393,-2.56417e-06
-0.392,-2.56122e-06
-0.391,-2.55726e-06
-0.39,-2.5543e-06
-0.389,-2.55135e-06
-0.388,-2.54739e-06
-0.387,-2.54443e-06
-0.386,-2.54148e-06
-0.385,-2.53752e-06
-0.384,-2.53456e-06
-0.383,-2.53161e-06
-0.382,-2.52765e-06
-0.381,-2.52469e-06
-0.38,-2.52074e-06
-0.379,-2.51778e-06
-0.378,-2.51482e-06
-0.377,-2.51087e-06
-0.376,-2.50891e-06
-0.375,-2.50495e-06
-0.374,-2.502e-06
-0.373,-2.49904e-06
-0.372,-2.49508e-06
-0.371,-2.49213e-06
-0.37,-2.48917e-06
